boundary.xy
1
197 1
335125.811186 294018.589430
335219.962236 293830.878003
335314.113286 293643.166576
335408.264335 293455.455149
335526.400107 293300.400845
335572.400099 293026.199088
335834.401736 293218.414076
336059.061241 293333.026802
336266.964389 293416.286045
336535.568958 293367.890811
336840.758330 293408.507158
337053.063980 293354.352028
337204.099921 293418.798482
337432.100107 293371.499495
337664.700082 293321.500733
337908.999905 293262.099716
338156.200138 293210.600961
338402.300067 293160.300639
338637.399983 293083.699615
338837.799905 292965.898919
339064.199918 293056.598602
339312.199972 293023.598895
339574.900050 292982.499061
339752.799885 292838.499112
339944.800084 292707.799262
340133.799896 292567.899215
340323.800131 292412.299665
340526.999920 292265.100952
340709.899893 292379.199812
341064.400095 292400.300773
341479.300040 292276.599067
341863.799970 292135.401194
342299.799996 291975.199075
342735.900046 291815.000421
343067.599866 291674.700053
343402.700040 291532.901437
343800.199940 291353.399892
344197.699933 291173.898738
344569.600052 291007.198566
344941.399964 290840.498806
345250.799992 290724.501495
345556.900146 290609.701199
345890.300017 290507.101287
346223.700071 290404.498617
346638.299984 290313.800198
347044.400044 290225.000369
347362.699990 290168.399679
347687.799917 290110.499541
348041.000119 290047.698849
348483.799899 290055.399766
348805.880672 290087.198394
349126.280614 290145.529897
349439.783368 290229.057069
349794.706937 290251.640768
350042.846080 290429.634699
350238.966133 290312.128201
350626.064971 290193.346057
351020.194422 290100.158553
351416.896778 290018.865748
351811.154837 290308.917663
352199.079772 290226.382294
352409.454359 290543.035526
352820.262645 290670.990484
353090.866118 290748.299487
353262.829252 290577.416113
353641.027956 290333.183468
354016.218105 290080.089033
354341.040442 289767.012260
354578.596955 289382.873835
354882.471859 289570.956094
355171.505886 289776.968572
355614.677763 289799.413184
355659.583253 289954.454943
355794.663307 290206.277362
355818.832515 290596.513342
355979.891391 290950.445500
356037.122706 291487.709732
355844.167455 291792.660389
356068.585480 292097.164446
356050.121478 292283.050904
355951.737486 292523.713860
355853.806597 292764.236200
356018.228286 293055.073785
355900.133745 293254.802342
355718.382076 293654.317279
355636.104063 293934.632758
355569.385093 294200.716811
355407.565045 294438.258081
355610.410507 294744.118830
355637.986322 294877.970994
355676.599717 294990.191031
355652.720997 295085.641986
355628.842288 295181.092916
355516.963496 295567.036133
355356.555240 296005.387756
354943.024210 295886.517047
354631.150191 295591.140053
354439.570100 295345.423175
354287.486433 295073.209670
354164.144400 294808.106965
354007.095323 294561.522678
353854.704371 294504.644438
353746.051374 294487.723875
353594.139891 294528.666357
353472.603860 294503.073370
353339.043295 294467.253331
353176.394214 294449.034700
353029.826612 294442.125250
352886.892361 294401.390637
352730.225567 294330.194391
352558.890627 294197.152048
352435.972587 294018.675232
352346.909826 293888.624363
352270.289993 293786.695887
352097.544311 293717.850905
351896.726048 293692.086660
351622.500069 293638.799131
351362.599918 293588.000690
351260.927796 293424.678128
351381.100105 293233.101281
351279.274993 293075.162916
351067.049459 292855.915697
350974.014682 292710.936755
350824.559313 292569.960516
350616.300073 292385.998835
350297.700097 292371.199914
350131.541528 292320.566530
350018.600132 292075.599887
349898.420948 291839.279700
349643.503535 291568.868759
349309.200028 291474.100064
349019.600052 291452.398651
348717.099999 291507.899328
348377.835619 291585.736607
348045.300093 291704.099478
347723.900056 291814.099726
347402.500144 291923.999686
347049.600041 292044.799923
346665.400101 292176.198718
346281.099953 292307.698519
345928.199913 292428.399222
345627.499896 292512.400926
345386.299943 292494.300915
345197.699993 292620.500967
344993.399963 292675.698654
344801.699866 292561.500715
344624.500125 292698.300186
344434.700111 292811.699544
344236.600006 292889.200586
344039.599885 292964.001205
343862.500148 292990.601217
343709.699967 293107.299084
343495.799895 293180.898985
343273.400042 293210.599371
343053.600137 293189.000247
342901.000114 293292.300120
342710.500031 293372.301138
342498.300076 293430.198637
342292.999978 293519.299674
342097.200122 293626.201285
341912.399999 293769.498752
341713.032907 293820.496153
341556.212080 293968.264251
341348.293288 294026.119585
341152.975956 294075.406860
340953.457905 294154.692670
340781.101123 294205.740332
340628.120968 294218.228773
340462.902104 294221.350063
340315.000519 294266.121903
340195.599880 294313.101019
340034.199961 294382.399309
339892.999959 294462.101286
339696.500141 294522.699311
339538.700070 294517.900708
339355.999919 294354.799507
339249.700128 294460.799427
339143.799875 294566.399906
339016.499880 294707.498578
338770.200080 294648.100763
338524.300074 294700.798673
338306.199882 294781.199520
338102.600132 294798.500588
337913.500023 294907.398856
337665.500095 295006.399082
337385.900141 295062.299513
337160.566493 294945.929004
336994.091743 294964.801151
336994.091790 294766.634524
336843.380726 294759.884918
336794.515024 294888.093368
336466.607092 294691.096929
336243.141108 294579.012346
336019.675123 294466.927763
335796.209139 294354.843179
335572.743155 294242.758596
335349.277170 294130.674013
